Time, Energy
0.000000,0.001442
0.000100,0.012933
0.000200,0.035687
0.000300,0.069256
0.000400,0.113000
0.000500,0.166114
0.000600,0.227664
0.000700,0.296633
0.000800,0.371957
0.000900,0.452565
0.001000,0.537419
0.001100,0.625536
0.001200,0.716020
0.001300,0.808074
0.001400,0.901016
0.001500,0.994284
0.001600,1.087440
0.001700,1.180193
0.001800,1.272408
0.001900,1.364072
0.002000,1.455266
0.002100,1.546073
0.002200,1.636513
0.002300,1.726649
0.002400,1.816640
0.002500,1.906767
0.002600,1.997437
0.002700,2.089110
0.002800,2.182101
0.002900,2.276412
0.003000,2.371808
0.003100,2.467967
0.003200,2.564552
0.003300,2.661240
0.003400,2.757777
0.003500,2.854046
0.003600,2.950023
0.003700,3.045690
0.003800,3.141010
0.003900,3.235933
0.004000,3.330389
0.004100,3.424246
0.004200,3.517344
0.004300,3.609537
0.004400,3.700690
0.004500,3.790670
0.004600,3.879374
0.004700,3.966762
0.004800,4.052840
0.004900,4.137616
0.005000,4.221093
0.005100,4.303273
0.005200,4.384138
0.005300,4.463625
0.005400,4.541632
0.005500,4.618047
0.005600,4.692761
0.005700,4.765674
0.005800,4.836699
0.005900,4.905782
0.006000,4.972896
0.006100,5.038032
0.006200,5.101194
0.006300,5.162390
0.006400,5.221636
0.006500,5.278949
0.006600,5.334340
0.006700,5.387815
0.006800,5.439380
0.006900,5.489046
0.007000,5.536825
0.007100,5.582730
0.007200,5.626776
0.007300,5.668981
0.007400,5.709362
0.007500,5.747936
0.007600,5.784721
0.007700,5.819737
0.007800,5.853008
0.007900,5.884558
0.008000,5.914413
0.008100,5.942599
0.008200,5.969142
0.008300,5.994069
0.008400,6.017413
0.008500,6.039206
0.008600,6.059486
0.008700,6.078287
0.008800,6.095643
0.008900,6.111586
0.009000,6.126149
0.009100,6.139365
0.009200,6.151267
0.009300,6.161885
0.009400,6.171242
0.009500,6.179358
0.009600,6.186251
0.009700,6.191940
0.009800,6.196443
0.009900,6.199777
0.010000,6.201961
0.010100,6.203013
0.010200,6.202956
0.010300,6.201815
0.010400,6.199615
0.010500,6.196382
0.010600,6.192144
0.010700,6.186924
0.010800,6.180747
0.010900,6.173638
0.011000,6.165619
0.011100,6.156714
0.011200,6.146944
0.011300,6.136328
0.011400,6.124883
0.011500,6.112625
0.011600,6.099574
0.011700,6.085750
0.011800,6.071174
0.011900,6.055864
0.012000,6.039843
0.012100,6.023131
0.012200,6.005751
0.012300,5.987727
0.012400,5.969085
0.012500,5.949846
0.012600,5.930030
0.012700,5.909658
0.012800,5.888748
0.012900,5.867323
0.013000,5.845401
0.013100,5.823002
0.013200,5.800137
0.013300,5.776818
0.013400,5.753056
0.013500,5.728863
0.013600,5.704252
0.013700,5.679237
0.013800,5.653837
0.013900,5.628069
0.014000,5.601953
0.014100,5.575505
0.014200,5.548745
0.014300,5.521693
0.014400,5.494367
0.014500,5.466787
0.014600,5.438969
0.014700,5.410932
0.014800,5.382697
0.014900,5.354283
0.015000,5.325714
0.015100,5.297011
0.015200,5.268195
0.015300,5.239288
0.015400,5.210310
0.015500,5.181286
0.015600,5.152239
0.015700,5.123192
0.015800,5.094170
0.015900,5.065196
0.016000,5.036290
0.016100,5.007477
0.016200,4.978783
0.016300,4.950234
0.016400,4.921859
0.016500,4.893691
0.016600,4.865765
0.016700,4.838120
0.016800,4.810797
0.016900,4.783841
0.017000,4.757304
0.017100,4.731234
0.017200,4.705684
0.017300,4.680707
0.017400,4.656358
0.017500,4.632690
0.017600,4.609755
0.017700,4.587602
0.017800,4.566281
0.017900,4.545834
0.018000,4.526295
0.018100,4.507698
0.018200,4.490073
0.018300,4.473449
0.018400,4.457852
0.018500,4.443308
0.018600,4.429839
0.018700,4.417467
0.018800,4.406213
0.018900,4.396100
0.019000,4.387150
0.019100,4.379386
0.019200,4.372829
0.019300,4.367497
0.019400,4.363409
0.019500,4.360577
0.019600,4.359014
0.019700,4.358728
0.019800,4.359726
0.019900,4.362009
0.020000,4.365575
0.020100,4.370420
0.020200,4.376534
0.020300,4.383908
0.020400,4.392525
0.020500,4.402369
0.020600,4.413421
0.020700,4.425656
0.020800,4.439051
0.020900,4.453576
0.021000,4.469203
0.021100,4.485900
0.021200,4.503633
0.021300,4.522365
0.021400,4.542058
0.021500,4.562673
0.021600,4.584166
0.021700,4.606494
0.021800,4.629612
0.021900,4.653473
0.022000,4.678033
0.022100,4.703243
0.022200,4.729055
0.022300,4.755422
0.022400,4.782292
0.022500,4.809615
0.022600,4.837339
0.022700,4.865412
0.022800,4.893783
0.022900,4.922400
0.023000,4.951216
0.023100,4.980185
0.023200,5.009258
0.023300,5.038392
0.023400,5.067546
0.023500,5.096685
0.023600,5.125777
0.023700,5.154794
0.023800,5.183711
0.023900,5.212504
0.024000,5.241150
0.024100,5.269627
0.024200,5.297913
0.024300,5.325987
0.024400,5.353828
0.024500,5.381412
0.024600,5.408719
0.024700,5.435729
0.024800,5.462422
0.024900,5.488779
0.025000,5.514785
0.025100,5.540423
0.025200,5.565681
0.025300,5.590547
0.025400,5.615009
0.025500,5.639058
0.025600,5.662686
0.025700,5.685889
0.025800,5.708660
0.025900,5.730994
0.026000,5.752888
0.026100,5.774337
0.026200,5.795333
0.026300,5.815871
0.026400,5.835942
0.026500,5.855540
0.026600,5.874658
0.026700,5.893289
0.026800,5.911428
0.026900,5.929071
0.027000,5.946213
0.027100,5.962851
0.027200,5.978980
0.027300,5.994599
0.027400,6.009702
0.027500,6.024288
0.027600,6.038351
0.027700,6.051889
0.027800,6.064897
0.027900,6.077370
0.028000,6.089304
0.028100,6.100692
0.028200,6.111529
0.028300,6.121807
0.028400,6.131519
0.028500,6.140655
0.028600,6.149205
0.028700,6.157158
0.028800,6.164503
0.028900,6.171229
0.029000,6.177325
0.029100,6.182781
0.029200,6.187589
0.029300,6.191739
0.029400,6.195224
0.029500,6.198037
0.029600,6.200174
0.029700,6.201630
0.029800,6.202404
0.029900,6.202494
0.030000,6.201899
0.030100,6.200619
0.030200,6.198655
0.030300,6.196008
0.030400,6.192682
0.030500,6.188681
0.030600,6.184010
0.030700,6.178673
0.030800,6.172678
0.030900,6.166033
0.031000,6.158749
0.031100,6.150839
0.031200,6.142312
0.031300,6.133178
0.031400,6.123440
0.031500,6.113102
0.031600,6.102172
0.031700,6.090656
0.031800,6.078562
0.031900,6.065899
0.032000,6.052679
0.032100,6.038912
0.032200,6.024610
0.032300,6.009789
0.032400,5.994464
0.032500,5.978652
0.032600,5.962376
0.032700,5.945656
0.032800,5.928515
0.032900,5.910977
0.033000,5.893065
0.033100,5.874804
0.033200,5.856221
0.033300,5.837341
0.033400,5.818192
0.033500,5.798803
0.033600,5.779208
0.033700,5.759439
0.033800,5.739532
0.033900,5.719524
0.034000,5.699454
0.034100,5.679366
0.034200,5.659307
0.034300,5.639324
0.034400,5.619466
0.034500,5.599783
0.034600,5.580327
0.034700,5.561146
0.034800,5.542291
0.034900,5.523808
0.035000,5.505743
0.035100,5.488139
0.035200,5.471040
0.035300,5.454485
0.035400,5.438511
0.035500,5.423157
0.035600,5.408457
0.035700,5.394444
0.035800,5.381153
0.035900,5.368612
0.036000,5.356851
0.036100,5.345893
0.036200,5.335761
0.036300,5.326473
0.036400,5.318043
0.036500,5.310485
0.036600,5.303805
0.036700,5.298010
0.036800,5.293103
0.036900,5.289082
0.037000,5.285943
0.037100,5.283681
0.037200,5.282284
0.037300,5.281738
0.037400,5.282026
0.037500,5.283127
0.037600,5.285015
0.037700,5.287662
0.037800,5.291036
0.037900,5.295102
0.038000,5.299825
0.038100,5.305163
0.038200,5.311074
0.038300,5.317512
0.038400,5.324426
0.038500,5.331767
0.038600,5.339479
0.038700,5.347510
0.038800,5.355799
0.038900,5.364288
0.039000,5.372909
0.039100,5.381593
0.039200,5.390271
0.039300,5.398872
0.039400,5.407326
0.039500,5.415566
0.039600,5.423529
0.039700,5.431156
0.039800,5.438396
0.039900,5.445202
0.040000,5.451528
0.040100,5.457333
0.040200,5.462581
0.040300,5.467236
0.040400,5.471264
0.040500,5.474628
0.040600,5.477288
0.040700,5.479209
0.040800,5.480358
0.040900,5.480704
0.041000,5.480219
0.041100,5.478877
0.041200,5.476662
0.041300,5.473561
0.041400,5.469568
0.041500,5.464676
0.041600,5.458883
0.041700,5.452194
0.041800,5.444614
0.041900,5.436157
0.042000,5.426831
0.042100,5.416648
0.042200,5.405624
0.042300,5.393777
0.042400,5.381131
0.042500,5.367712
0.042600,5.353549
0.042700,5.338674
0.042800,5.323126
0.042900,5.306951
0.043000,5.290190
0.043100,5.272886
0.043200,5.255085
0.043300,5.236831
0.043400,5.218173
0.043500,5.199157
0.043600,5.179831
0.043700,5.160245
0.043800,5.140446
0.043900,5.120477
0.044000,5.100384
0.044100,5.080209
0.044200,5.060004
0.044300,5.039818
0.044400,5.019704
0.044500,4.999716
0.044600,4.979907
0.044700,4.960331
0.044800,4.941040
0.044900,4.922088
0.045000,4.903524
0.045100,4.885400
0.045200,4.867764
0.045300,4.850661
0.045400,4.834138
0.045500,4.818237
0.045600,4.803002
0.045700,4.788472
0.045800,4.774685
0.045900,4.761678
0.046000,4.749485
0.046100,4.738135
0.046200,4.727657
0.046300,4.718077
0.046400,4.709416
0.046500,4.701696
0.046600,4.694936
0.046700,4.689157
0.046800,4.684376
0.046900,4.680613
0.047000,4.677886
0.047100,4.676213
0.047200,4.675606
0.047300,4.676069
0.047400,4.677603
0.047500,4.680207
0.047600,4.683875
0.047700,4.688600
0.047800,4.694368
0.047900,4.701159
0.048000,4.708954
0.048100,4.717728
0.048200,4.727453
0.048300,4.738107
0.048400,4.749666
0.048500,4.762103
0.048600,4.775390
0.048700,4.789498
0.048800,4.804397
0.048900,4.820053
0.049000,4.836430
0.049100,4.853487
0.049200,4.871179
0.049300,4.889464
0.049400,4.908298
0.049500,4.927637
0.049600,4.947440
0.049700,4.967665
0.049800,4.988279
0.049900,5.009250
0.050000,5.030544
0.050100,5.052132
0.050200,5.073982
0.050300,5.096062
0.050400,5.118340
0.050500,5.140777
0.050600,5.163331
0.050700,5.185958
0.050800,5.208616
0.050900,5.231263
0.051000,5.253861
0.051100,5.276368
0.051200,5.298750
0.051300,5.320977
0.051400,5.343022
0.051500,5.364857
0.051600,5.386460
0.051700,5.407806
0.051800,5.428874
0.051900,5.449643
0.052000,5.470095
0.052100,5.490209
0.052200,5.509966
0.052300,5.529349
0.052400,5.548342
0.052500,5.566928
0.052600,5.585089
0.052700,5.602810
0.052800,5.620076
0.052900,5.636875
0.053000,5.653195
0.053100,5.669025
0.053200,5.684356
0.053300,5.699181
0.053400,5.713490
0.053500,5.727278
0.053600,5.740539
0.053700,5.753269
0.053800,5.765464
0.053900,5.777122
0.054000,5.788244
0.054100,5.798828
0.054200,5.808877
0.054300,5.818390
0.054400,5.827371
0.054500,5.835822
0.054600,5.843750
0.054700,5.851160
0.054800,5.858059
0.054900,5.864455
0.055000,5.870359
0.055100,5.875782
0.055200,5.880734
0.055300,5.885229
0.055400,5.889281
0.055500,5.892903
0.055600,5.896110
0.055700,5.898916
0.055800,5.901334
0.055900,5.903377
0.056000,5.905060
0.056100,5.906397
0.056200,5.907400
0.056300,5.908084
0.056400,5.908463
0.056500,5.908553
0.056600,5.908369
0.056700,5.907925
0.056800,5.907237
0.056900,5.906319
0.057000,5.905186
0.057100,5.903850
0.057200,5.902322
0.057300,5.900614
0.057400,5.898734
0.057500,5.896691
0.057600,5.894492
0.057700,5.892143
0.057800,5.889648
0.057900,5.887013
0.058000,5.884243
0.058100,5.881341
0.058200,5.878311
0.058300,5.875157
0.058400,5.871880
0.058500,5.868482
0.058600,5.864963
0.058700,5.861325
0.058800,5.857566
0.058900,5.853688
0.059000,5.849690
0.059100,5.845570
0.059200,5.841329
0.059300,5.836964
0.059400,5.832476
0.059500,5.827864
0.059600,5.823127
0.059700,5.818263
0.059800,5.813271
0.059900,5.808146
0.060000,5.802889
0.060100,5.797496
0.060200,5.791965
0.060300,5.786293
0.060400,5.780479
0.060500,5.774522
0.060600,5.768419
0.060700,5.762171
0.060800,5.755777
0.060900,5.749237
0.061000,5.742550
0.061100,5.735719
0.061200,5.728743
0.061300,5.721623
0.061400,5.714360
0.061500,5.706955
0.061600,5.699410
0.061700,5.691726
0.061800,5.683904
0.061900,5.675945
0.062000,5.667850
0.062100,5.659622
0.062200,5.651263
0.062300,5.642774
0.062400,5.634160
0.062500,5.625422
0.062600,5.616564
0.062700,5.607590
0.062800,5.598505
0.062900,5.589315
0.063000,5.580023
0.063100,5.570637
0.063200,5.561161
0.063300,5.551603
0.063400,5.541970
0.063500,5.532268
0.063600,5.522505
0.063700,5.512691
0.063800,5.502832
0.063900,5.492939
0.064000,5.483020
0.064100,5.473084
0.064200,5.463141
0.064300,5.453199
0.064400,5.443269
0.064500,5.433361
0.064600,5.423483
0.064700,5.413648
0.064800,5.403864
0.064900,5.394143
0.065000,5.384494
0.065100,5.374928
0.065200,5.365455
0.065300,5.356085
0.065400,5.346827
0.065500,5.337691
0.065600,5.328685
0.065700,5.319820
0.065800,5.311106
0.065900,5.302552
0.066000,5.294169
0.066100,5.285965
0.066200,5.277952
0.066300,5.270138
0.066400,5.262532
0.066500,5.255144
0.066600,5.247982
0.066700,5.241054
0.066800,5.234367
0.066900,5.227930
0.067000,5.221750
0.067100,5.215835
0.067200,5.210191
0.067300,5.204825
0.067400,5.199745
0.067500,5.194955
0.067600,5.190462
0.067700,5.186270
0.067800,5.182383
0.067900,5.178805
0.068000,5.175539
0.068100,5.172586
0.068200,5.169949
0.068300,5.167629
0.068400,5.165626
0.068500,5.163942
0.068600,5.162574
0.068700,5.161522
0.068800,5.160784
0.068900,5.160358
0.069000,5.160240
0.069100,5.160427
0.069200,5.160915
0.069300,5.161698
0.069400,5.162772
0.069500,5.164131
0.069600,5.165769
0.069700,5.167680
0.069800,5.169858
0.069900,5.172295
0.070000,5.174986
0.070100,5.177922
0.070200,5.181097
0.070300,5.184502
0.070400,5.188128
0.070500,5.191968
0.070600,5.196012
0.070700,5.200251
0.070800,5.204676
0.070900,5.209276
0.071000,5.214042
0.071100,5.218966
0.071200,5.224036
0.071300,5.229242
0.071400,5.234576
0.071500,5.240025
0.071600,5.245581
0.071700,5.251231
0.071800,5.256965
0.071900,5.262774
0.072000,5.268647
0.072100,5.274574
0.072200,5.280545
0.072300,5.286549
0.072400,5.292578
0.072500,5.298622
0.072600,5.304670
0.072700,5.310714
0.072800,5.316743
0.072900,5.322747
0.073000,5.328717
0.073100,5.334644
0.073200,5.340518
0.073300,5.346330
0.073400,5.352073
0.073500,5.357738
0.073600,5.363319
0.073700,5.368807
0.073800,5.374196
0.073900,5.379478
0.074000,5.384648
0.074100,5.389699
0.074200,5.394623
0.074300,5.399414
0.074400,5.404066
0.074500,5.408572
0.074600,5.412927
0.074700,5.417125
0.074800,5.421162
0.074900,5.425032
0.075000,5.428733
0.075100,5.432262
0.075200,5.435613
0.075300,5.438784
0.075400,5.441771
0.075500,5.444571
0.075600,5.447182
0.075700,5.449600
0.075800,5.451824
0.075900,5.453851
0.076000,5.455679
0.076100,5.457305
0.076200,5.458728
0.076300,5.459946
0.076400,5.460958
0.076500,5.461763
0.076600,5.462361
0.076700,5.462751
0.076800,5.462934
0.076900,5.462910
0.077000,5.462680
0.077100,5.462245
0.077200,5.461607
0.077300,5.460766
0.077400,5.459725
0.077500,5.458485
0.077600,5.457048
0.077700,5.455416
0.077800,5.453591
0.077900,5.451577
0.078000,5.449376
0.078100,5.446990
0.078200,5.444424
0.078300,5.441679
0.078400,5.438759
0.078500,5.435665
0.078600,5.432400
0.078700,5.428965
0.078800,5.425363
0.078900,5.421597
0.079000,5.417670
0.079100,5.413586
0.079200,5.409349
0.079300,5.404963
0.079400,5.400431
0.079500,5.395760
0.079600,5.390952
0.079700,5.386012
0.079800,5.380945
0.079900,5.375755
0.080000,5.370445
0.080100,5.365022
0.080200,5.359489
0.080300,5.353852
0.080400,5.348115
0.080500,5.342285
0.080600,5.336365
0.080700,5.330360
0.080800,5.324275
0.080900,5.318115
0.081000,5.311885
0.081100,5.305588
0.081200,5.299230
0.081300,5.292814
0.081400,5.286344
0.081500,5.279825
0.081600,5.273259
0.081700,5.266650
0.081800,5.260000
0.081900,5.253313
0.082000,5.246591
0.082100,5.239839
0.082200,5.233059
0.082300,5.226254
0.082400,5.219429
0.082500,5.212587
0.082600,5.205732
0.082700,5.198869
0.082800,5.192002
0.082900,5.185135
0.083000,5.178274
0.083100,5.171422
0.083200,5.164584
0.083300,5.157765
0.083400,5.150969
0.083500,5.144201
0.083600,5.137465
0.083700,5.130767
0.083800,5.124110
0.083900,5.117499
0.084000,5.110938
0.084100,5.104430
0.084200,5.097979
0.084300,5.091589
0.084400,5.085263
0.084500,5.079005
0.084600,5.072817
0.084700,5.066703
0.084800,5.060665
0.084900,5.054706
0.085000,5.048828
0.085100,5.043033
0.085200,5.037326
0.085300,5.031707
0.085400,5.026179
0.085500,5.020744
0.085600,5.015404
0.085700,5.010160
0.085800,5.005014
0.085900,4.999967
0.086000,4.995019
0.086100,4.990172
0.086200,4.985427
0.086300,4.980784
0.086400,4.976245
0.086500,4.971809
0.086600,4.967479
0.086700,4.963254
0.086800,4.959137
0.086900,4.955127
0.087000,4.951226
0.087100,4.947433
0.087200,4.943749
0.087300,4.940174
0.087400,4.936708
0.087500,4.933351
0.087600,4.930104
0.087700,4.926965
0.087800,4.923935
0.087900,4.921014
0.088000,4.918199
0.088100,4.915490
0.088200,4.912887
0.088300,4.910388
0.088400,4.907990
0.088500,4.905693
0.088600,4.903494
0.088700,4.901391
0.088800,4.899383
0.088900,4.897465
0.089000,4.895638
0.089100,4.893896
0.089200,4.892239
0.089300,4.890663
0.089400,4.889165
0.089500,4.887743
0.089600,4.886394
0.089700,4.885115
0.089800,4.883905
0.089900,4.882760
0.090000,4.881679
0.090100,4.880660
0.090200,4.879700
0.090300,4.878798
0.090400,4.877951
0.090500,4.877158
0.090600,4.876415
0.090700,4.875722
0.090800,4.875075
0.090900,4.874472
0.091000,4.873912
0.091100,4.873392
0.091200,4.872909
0.091300,4.872462
0.091400,4.872048
0.091500,4.871665
0.091600,4.871311
0.091700,4.870982
0.091800,4.870678
0.091900,4.870394
0.092000,4.870130
0.092100,4.869884
0.092200,4.869652
0.092300,4.869434
0.092400,4.869227
0.092500,4.869029
0.092600,4.868838
0.092700,4.868653
0.092800,4.868470
0.092900,4.868287
0.093000,4.868102
0.093100,4.867913
0.093200,4.867717
0.093300,4.867513
0.093400,4.867298
0.093500,4.867069
0.093600,4.866825
0.093700,4.866563
0.093800,4.866283
0.093900,4.865980
0.094000,4.865654
0.094100,4.865302
0.094200,4.864923
0.094300,4.864514
0.094400,4.864074
0.094500,4.863601
0.094600,4.863092
0.094700,4.862545
0.094800,4.861959
0.094900,4.861330
0.095000,4.860657
0.095100,4.859939
0.095200,4.859173
0.095300,4.858357
0.095400,4.857490
0.095500,4.856570
0.095600,4.855595
0.095700,4.854564
0.095800,4.853475
0.095900,4.852327
0.096000,4.851117
0.096100,4.849845
0.096200,4.848509
0.096300,4.847107
0.096400,4.845637
0.096500,4.844097
0.096600,4.842487
0.096700,4.840805
0.096800,4.839050
0.096900,4.837220
0.097000,4.835316
0.097100,4.833335
0.097200,4.831278
0.097300,4.829143
0.097400,4.826930
0.097500,4.824638
0.097600,4.822266
0.097700,4.819815
0.097800,4.817284
0.097900,4.814673
0.098000,4.811981
0.098100,4.809209
0.098200,4.806356
0.098300,4.803423
0.098400,4.800411
0.098500,4.797319
0.098600,4.794148
0.098700,4.790898
0.098800,4.787570
0.098900,4.784165
0.099000,4.780684
0.099100,4.777128
0.099200,4.773498
0.099300,4.769796
0.099400,4.766024
0.099500,4.762183
0.099600,4.758274
0.099700,4.754301
0.099800,4.750264
0.099900,4.746166
0.100000,4.742008
0.100100,4.737793
0.100200,4.733522
0.100300,4.729199
0.100400,4.724825
0.100500,4.720404
0.100600,4.715937
0.100700,4.711429
0.100800,4.706882
0.100900,4.702300
0.101000,4.697686
0.101100,4.693044
0.101200,4.688375
0.101300,4.683685
0.101400,4.678976
0.101500,4.674252
0.101600,4.669517
0.101700,4.664774
0.101800,4.660027
0.101900,4.655279
0.102000,4.650534
0.102100,4.645796
0.102200,4.641067
0.102300,4.636352
0.102400,4.631654
0.102500,4.626976
0.102600,4.622322
0.102700,4.617694
0.102800,4.613096
0.102900,4.608529
0.103000,4.603997
0.103100,4.599501
0.103200,4.595044
0.103300,4.590626
0.103400,4.586250
0.103500,4.581918
0.103600,4.577630
0.103700,4.573389
0.103800,4.569194
0.103900,4.565048
0.104000,4.560950
0.104100,4.556903
0.104200,4.552907
0.104300,4.548963
0.104400,4.545072
0.104500,4.541233
0.104600,4.537449
0.104700,4.533719
0.104800,4.530043
0.104900,4.526421
0.105000,4.522855
0.105100,4.519342
0.105200,4.515883
0.105300,4.512478
0.105400,4.509126
0.105500,4.505826
0.105600,4.502578
0.105700,4.499381
0.105800,4.496234
0.105900,4.493137
0.106000,4.490088
0.106100,4.487087
0.106200,4.484132
0.106300,4.481222
0.106400,4.478356
0.106500,4.475532
0.106600,4.472750
0.106700,4.470007
0.106800,4.467302
0.106900,4.464633
0.107000,4.461998
0.107100,4.459395
0.107200,4.456823
0.107300,4.454279
0.107400,4.451763
0.107500,4.449271
0.107600,4.446802
0.107700,4.444355
0.107800,4.441926
0.107900,4.439515
0.108000,4.437119
0.108100,4.434737
0.108200,4.432366
0.108300,4.430006
0.108400,4.427654
0.108500,4.425309
0.108600,4.422969
0.108700,4.420631
0.108800,4.418296
0.108900,4.415959
0.109000,4.413621
0.109100,4.411280
0.109200,4.408934
0.109300,4.406581
0.109400,4.404221
0.109500,4.401851
0.109600,4.399470
0.109700,4.397078
0.109800,4.394672
0.109900,4.392252
0.110000,4.389816
0.110100,4.387362
0.110200,4.384890
0.110300,4.382397
0.110400,4.379883
0.110500,4.377347
0.110600,4.374786
0.110700,4.372199
0.110800,4.369586
0.110900,4.366946
