Time, Energy
0.000000,-4.980030
0.000100,-4.994453
0.000200,-5.022970
0.000300,-5.064944
0.000400,-5.119463
0.000500,-5.185390
0.000600,-5.261427
0.000700,-5.346179
0.000800,-5.438194
0.000900,-5.536041
0.001000,-5.638384
0.001100,-5.743971
0.001200,-5.851685
0.001300,-5.960587
0.001400,-6.069909
0.001500,-6.179053
0.001600,-6.287603
0.001700,-6.395362
0.001800,-6.502254
0.001900,-6.608617
0.002000,-6.714671
0.002100,-6.820674
0.002200,-6.926607
0.002300,-7.032335
0.002400,-7.137909
0.002500,-7.243531
0.002600,-7.349583
0.002700,-7.456562
0.002800,-7.564811
0.002900,-7.674254
0.003000,-7.784670
0.003100,-7.895649
0.003200,-8.006807
0.003300,-8.117766
0.003400,-8.228298
0.003500,-8.338296
0.003600,-8.447744
0.003700,-8.556639
0.003800,-8.664896
0.003900,-8.772455
0.004000,-8.879205
0.004100,-8.984978
0.004200,-9.089586
0.004300,-9.192905
0.004400,-9.294805
0.004500,-9.395148
0.004600,-9.493817
0.004700,-9.590824
0.004800,-9.686144
0.004900,-9.779786
0.005000,-9.871751
0.005100,-9.962033
0.005200,-10.050631
0.005300,-10.137471
0.005400,-10.222448
0.005500,-10.305445
0.005600,-10.386351
0.005700,-10.465101
0.005800,-10.541576
0.005900,-10.615734
0.006000,-10.687547
0.006100,-10.757033
0.006200,-10.824182
0.006300,-10.889032
0.006400,-10.951579
0.006500,-11.011868
0.006600,-11.069904
0.006700,-11.125713
0.006800,-11.179299
0.006900,-11.230712
0.007000,-11.279949
0.007100,-11.327044
0.007200,-11.372031
0.007300,-11.414923
0.007400,-11.455759
0.007500,-11.494570
0.007600,-11.531383
0.007700,-11.566235
0.007800,-11.599170
0.007900,-11.630209
0.008000,-11.659401
0.008100,-11.686774
0.008200,-11.712370
0.008300,-11.736234
0.008400,-11.758415
0.008500,-11.778961
0.008600,-11.797911
0.008700,-11.815323
0.008800,-11.831234
0.008900,-11.845686
0.009000,-11.858718
0.009100,-11.870358
0.009200,-11.880660
0.009300,-11.889657
0.009400,-11.897364
0.009500,-11.903813
0.009600,-11.909034
0.009700,-11.913046
0.009800,-11.915866
0.009900,-11.917516
0.010000,-11.918021
0.010100,-11.917392
0.010200,-11.915656
0.010300,-11.912839
0.010400,-11.908973
0.010500,-11.904072
0.010600,-11.898168
0.010700,-11.891276
0.010800,-11.883444
0.010900,-11.874679
0.011000,-11.865001
0.011100,-11.854428
0.011200,-11.842989
0.011300,-11.830703
0.011400,-11.817581
0.011500,-11.803645
0.011600,-11.788901
0.011700,-11.773373
0.011800,-11.757072
0.011900,-11.740037
0.012000,-11.722275
0.012100,-11.703806
0.012200,-11.684656
0.012300,-11.664845
0.012400,-11.644411
0.012500,-11.623350
0.012600,-11.601701
0.012700,-11.579467
0.012800,-11.556669
0.012900,-11.533347
0.013000,-11.509485
0.013100,-11.485107
0.013200,-11.460230
0.013300,-11.434863
0.013400,-11.409011
0.013500,-11.382679
0.013600,-11.355877
0.013700,-11.328627
0.013800,-11.300933
0.013900,-11.272812
0.014000,-11.244283
0.014100,-11.215369
0.014200,-11.186060
0.014300,-11.156391
0.014400,-11.126390
0.014500,-11.096069
0.014600,-11.065430
0.014700,-11.034492
0.014800,-11.003273
0.014900,-10.971799
0.015000,-10.940090
0.015100,-10.908158
0.015200,-10.876034
0.015300,-10.843739
0.015400,-10.811295
0.015500,-10.778706
0.015600,-10.746009
0.015700,-10.713222
0.015800,-10.680378
0.015900,-10.647491
0.016000,-10.614573
0.016100,-10.581652
0.016200,-10.548755
0.016300,-10.515918
0.016400,-10.483157
0.016500,-10.450517
0.016600,-10.418010
0.016700,-10.385687
0.016800,-10.353587
0.016900,-10.321778
0.017000,-10.290292
0.017100,-10.259193
0.017200,-10.228507
0.017300,-10.198317
0.017400,-10.168658
0.017500,-10.139580
0.017600,-10.111166
0.017700,-10.083456
0.017800,-10.056499
0.017900,-10.030335
0.018000,-10.005003
0.018100,-9.980547
0.018200,-9.956982
0.018300,-9.934355
0.018400,-9.912678
0.018500,-9.891988
0.018600,-9.872303
0.018700,-9.853654
0.018800,-9.836070
0.018900,-9.819574
0.019000,-9.804201
0.019100,-9.789932
0.019200,-9.776846
0.019300,-9.764945
0.019400,-9.754259
0.019500,-9.744797
0.019600,-9.736556
0.019700,-9.729575
0.019800,-9.723857
0.019900,-9.719400
0.020000,-9.716211
0.020100,-9.714299
0.020200,-9.713654
0.020300,-9.714255
0.020400,-9.716108
0.020500,-9.719198
0.020600,-9.723511
0.020700,-9.729033
0.020800,-9.735728
0.020900,-9.743562
0.021000,-9.752540
0.021100,-9.762618
0.021200,-9.773756
0.021300,-9.785943
0.021400,-9.799127
0.021500,-9.813287
0.021600,-9.828372
0.021700,-9.844338
0.021800,-9.861162
0.021900,-9.878785
0.022000,-9.897174
0.022100,-9.916282
0.022200,-9.936071
0.022300,-9.956470
0.022400,-9.977461
0.022500,-9.998995
0.022600,-10.021007
0.022700,-10.043453
0.022800,-10.066281
0.022900,-10.089448
0.023000,-10.112906
0.023100,-10.136618
0.023200,-10.160526
0.023300,-10.184592
0.023400,-10.208787
0.023500,-10.233062
0.023600,-10.257387
0.023700,-10.281741
0.023800,-10.306107
0.023900,-10.330446
0.024000,-10.354744
0.024100,-10.378969
0.024200,-10.403116
0.024300,-10.427149
0.024400,-10.451050
0.024500,-10.474809
0.024600,-10.498390
0.024700,-10.521774
0.024800,-10.544939
0.024900,-10.567869
0.025000,-10.590548
0.025100,-10.612956
0.025200,-10.635087
0.025300,-10.656924
0.025400,-10.678450
0.025500,-10.699666
0.025600,-10.720550
0.025700,-10.741110
0.025800,-10.761333
0.025900,-10.781202
0.026000,-10.800732
0.026100,-10.819893
0.026200,-10.838688
0.026300,-10.857103
0.026400,-10.875144
0.026500,-10.892784
0.026600,-10.910023
0.026700,-10.926847
0.026800,-10.943262
0.026900,-10.959247
0.027000,-10.974810
0.027100,-10.989925
0.027200,-11.004612
0.027300,-11.018845
0.027400,-11.032635
0.027500,-11.045965
0.027600,-11.058839
0.027700,-11.071246
0.027800,-11.083187
0.027900,-11.094629
0.028000,-11.105596
0.028100,-11.116069
0.028200,-11.126037
0.028300,-11.135498
0.028400,-11.144434
0.028500,-11.152851
0.028600,-11.160708
0.028700,-11.168013
0.028800,-11.174741
0.028900,-11.180894
0.029000,-11.186447
0.029100,-11.191396
0.029200,-11.195723
0.029300,-11.199429
0.029400,-11.202496
0.029500,-11.204920
0.029600,-11.206694
0.029700,-11.207816
0.029800,-11.208274
0.029900,-11.208085
0.030000,-11.207218
0.030100,-11.205685
0.030200,-11.203489
0.030300,-11.200622
0.030400,-11.197101
0.030500,-11.192924
0.030600,-11.188085
0.030700,-11.182586
0.030800,-11.176448
0.030900,-11.169677
0.031000,-11.162278
0.031100,-11.154260
0.031200,-11.145637
0.031300,-11.136414
0.031400,-11.126600
0.031500,-11.116192
0.031600,-11.105190
0.031700,-11.093622
0.031800,-11.081477
0.031900,-11.068761
0.032000,-11.055495
0.032100,-11.041694
0.032200,-11.027359
0.032300,-11.012506
0.032400,-10.997148
0.032500,-10.981309
0.032600,-10.965007
0.032700,-10.948257
0.032800,-10.931096
0.032900,-10.913536
0.033000,-10.895612
0.033100,-10.877344
0.033200,-10.858741
0.033300,-10.839849
0.033400,-10.820683
0.033500,-10.801274
0.033600,-10.781670
0.033700,-10.761884
0.033800,-10.741957
0.033900,-10.721931
0.034000,-10.701849
0.034100,-10.681746
0.034200,-10.661672
0.034300,-10.641680
0.034400,-10.621811
0.034500,-10.602122
0.034600,-10.582653
0.034700,-10.563459
0.034800,-10.544589
0.034900,-10.526091
0.035000,-10.508012
0.035100,-10.490400
0.035200,-10.473289
0.035300,-10.456715
0.035400,-10.440721
0.035500,-10.425345
0.035600,-10.410631
0.035700,-10.396596
0.035800,-10.383284
0.035900,-10.370727
0.036000,-10.358952
0.036100,-10.347970
0.036200,-10.337819
0.036300,-10.328519
0.036400,-10.320090
0.036500,-10.312521
0.036600,-10.305824
0.036700,-10.300018
0.036800,-10.295094
0.036900,-10.291063
0.037000,-10.287909
0.037100,-10.285634
0.037200,-10.284211
0.037300,-10.283647
0.037400,-10.283914
0.037500,-10.285000
0.037600,-10.286869
0.037700,-10.289498
0.037800,-10.292857
0.037900,-10.296907
0.038000,-10.301607
0.038100,-10.306926
0.038200,-10.312818
0.038300,-10.319237
0.038400,-10.326132
0.038500,-10.333458
0.038600,-10.341154
0.038700,-10.349168
0.038800,-10.357435
0.038900,-10.365900
0.039000,-10.374499
0.039100,-10.383160
0.039200,-10.391824
0.039300,-10.400397
0.039400,-10.408831
0.039500,-10.417054
0.039600,-10.425005
0.039700,-10.432614
0.039800,-10.439840
0.039900,-10.446635
0.040000,-10.452929
0.040100,-10.458702
0.040200,-10.463925
0.040300,-10.468555
0.040400,-10.472560
0.040500,-10.475896
0.040600,-10.478525
0.040700,-10.480428
0.040800,-10.481544
0.040900,-10.481869
0.041000,-10.481361
0.041100,-10.479989
0.041200,-10.477749
0.041300,-10.474617
0.041400,-10.470589
0.041500,-10.465668
0.041600,-10.459845
0.041700,-10.453126
0.041800,-10.445511
0.041900,-10.437009
0.042000,-10.427645
0.042100,-10.417424
0.042200,-10.406363
0.042300,-10.394481
0.042400,-10.381793
0.042500,-10.368330
0.042600,-10.354124
0.042700,-10.339206
0.042800,-10.323614
0.042900,-10.307397
0.043000,-10.290588
0.043100,-10.273245
0.043200,-10.255397
0.043300,-10.237096
0.043400,-10.218385
0.043500,-10.199317
0.043600,-10.179932
0.043700,-10.160289
0.043800,-10.140430
0.043900,-10.120406
0.044000,-10.100252
0.044100,-10.080016
0.044200,-10.059755
0.044300,-10.039504
0.044400,-10.019325
0.044500,-9.999264
0.044600,-9.979382
0.044700,-9.959744
0.044800,-9.940371
0.044900,-9.921337
0.045000,-9.902699
0.045100,-9.884497
0.045200,-9.866769
0.045300,-9.849581
0.045400,-9.832971
0.045500,-9.816975
0.045600,-9.801642
0.045700,-9.787018
0.045800,-9.773134
0.045900,-9.760024
0.046000,-9.747727
0.046100,-9.736265
0.046200,-9.725672
0.046300,-9.715972
0.046400,-9.707192
0.046500,-9.699350
0.046600,-9.692464
0.046700,-9.686554
0.046800,-9.681638
0.046900,-9.677741
0.047000,-9.674869
0.047100,-9.673045
0.047200,-9.672289
0.047300,-9.672607
0.047400,-9.673983
0.047500,-9.676431
0.047600,-9.679934
0.047700,-9.684493
0.047800,-9.690092
0.047900,-9.696708
0.048000,-9.704320
0.048100,-9.712912
0.048200,-9.722455
0.048300,-9.732927
0.048400,-9.744284
0.048500,-9.756514
0.048600,-9.769598
0.048700,-9.783501
0.048800,-9.798187
0.048900,-9.813623
0.049000,-9.829782
0.049100,-9.846620
0.049200,-9.864081
0.049300,-9.882144
0.049400,-9.900740
0.049500,-9.919849
0.049600,-9.939424
0.049700,-9.959410
0.049800,-9.979782
0.049900,-10.000509
0.050000,-10.021547
0.050100,-10.042881
0.050200,-10.064476
0.050300,-10.086295
0.050400,-10.108313
0.050500,-10.130491
0.050600,-10.152794
0.050700,-10.175166
0.050800,-10.197560
0.050900,-10.219955
0.051000,-10.242302
0.051100,-10.264545
0.051200,-10.286679
0.051300,-10.308660
0.051400,-10.330440
0.051500,-10.352026
0.051600,-10.373376
0.051700,-10.394481
0.051800,-10.415307
0.051900,-10.435844
0.052000,-10.456062
0.052100,-10.475959
0.052200,-10.495506
0.052300,-10.514680
0.052400,-10.533466
0.052500,-10.551857
0.052600,-10.569835
0.052700,-10.587374
0.052800,-10.604477
0.052900,-10.621116
0.053000,-10.637283
0.053100,-10.652974
0.053200,-10.668175
0.053300,-10.682884
0.053400,-10.697096
0.053500,-10.710805
0.053600,-10.723995
0.053700,-10.736656
0.053800,-10.748807
0.053900,-10.760434
0.054000,-10.771541
0.054100,-10.782133
0.054200,-10.792203
0.054300,-10.801756
0.054400,-10.810790
0.054500,-10.819318
0.054600,-10.827345
0.054700,-10.834865
0.054800,-10.841900
0.054900,-10.848446
0.055000,-10.854517
0.055100,-10.860129
0.055200,-10.865290
0.055300,-10.870019
0.055400,-10.874312
0.055500,-10.878201
0.055600,-10.881704
0.055700,-10.884830
0.055800,-10.887587
0.055900,-10.889992
0.056000,-10.892052
0.056100,-10.893786
0.056200,-10.895211
0.056300,-10.896340
0.056400,-10.897166
0.056500,-10.897740
0.056600,-10.898050
0.056700,-10.898122
0.056800,-10.897967
0.056900,-10.897601
0.057000,-10.897044
0.057100,-10.896293
0.057200,-10.895378
0.057300,-10.894294
0.057400,-10.893061
0.057500,-10.891656
0.057600,-10.890122
0.057700,-10.888448
0.057800,-10.886650
0.057900,-10.884718
0.058000,-10.882658
0.058100,-10.880478
0.058200,-10.878181
0.058300,-10.875767
0.058400,-10.873237
0.058500,-10.870593
0.058600,-10.867827
0.058700,-10.864954
0.058800,-10.861955
0.058900,-10.858836
0.059000,-10.855608
0.059100,-10.852263
0.059200,-10.848788
0.059300,-10.845188
0.059400,-10.841458
0.059500,-10.837609
0.059600,-10.833627
0.059700,-10.829509
0.059800,-10.825252
0.059900,-10.820854
0.060000,-10.816328
0.060100,-10.811651
0.060200,-10.806826
0.060300,-10.801850
0.060400,-10.796719
0.060500,-10.791428
0.060600,-10.785984
0.060700,-10.780370
0.060800,-10.774607
0.060900,-10.768675
0.061000,-10.762576
0.061100,-10.756319
0.061200,-10.749901
0.061300,-10.743329
0.061400,-10.736596
0.061500,-10.729692
0.061600,-10.722625
0.061700,-10.715400
0.061800,-10.708024
0.061900,-10.700489
0.062000,-10.692803
0.062100,-10.684955
0.062200,-10.676963
0.062300,-10.668817
0.062400,-10.660520
0.062500,-10.652084
0.062600,-10.643501
0.062700,-10.634779
0.062800,-10.625927
0.062900,-10.616945
0.063000,-10.607842
0.063100,-10.598624
0.063200,-10.589293
0.063300,-10.579860
0.063400,-10.570327
0.063500,-10.560701
0.063600,-10.550996
0.063700,-10.541214
0.063800,-10.531362
0.063900,-10.521452
0.064000,-10.511490
0.064100,-10.501498
0.064200,-10.491489
0.064300,-10.481456
0.064400,-10.471413
0.064500,-10.461370
0.064600,-10.451349
0.064700,-10.441346
0.064800,-10.431374
0.064900,-10.421447
0.065000,-10.411576
0.065100,-10.401768
0.065200,-10.392039
0.065300,-10.382388
0.065400,-10.372839
0.065500,-10.363389
0.065600,-10.354058
0.065700,-10.344856
0.065800,-10.335793
0.065900,-10.326872
0.066000,-10.318105
0.066100,-10.309503
0.066200,-10.301085
0.066300,-10.292859
0.066400,-10.284827
0.066500,-10.277002
0.066600,-10.269392
0.066700,-10.262011
0.066800,-10.254865
0.066900,-10.247957
0.067000,-10.241306
0.067100,-10.234902
0.067200,-10.228764
0.067300,-10.222894
0.067400,-10.217311
0.067500,-10.212013
0.067600,-10.207013
0.067700,-10.202298
0.067800,-10.197893
0.067900,-10.193795
0.068000,-10.190012
0.068100,-10.186539
0.068200,-10.183378
0.068300,-10.180530
0.068400,-10.178000
0.068500,-10.175798
0.068600,-10.173905
0.068700,-10.172329
0.068800,-10.171080
0.068900,-10.170137
0.069000,-10.169516
0.069100,-10.169197
0.069200,-10.169181
0.069300,-10.169460
0.069400,-10.170039
0.069500,-10.170914
0.069600,-10.172068
0.069700,-10.173504
0.069800,-10.175218
0.069900,-10.177197
0.070000,-10.179440
0.070100,-10.181933
0.070200,-10.184671
0.070300,-10.187652
0.070400,-10.190857
0.070500,-10.194289
0.070600,-10.197935
0.070700,-10.201786
0.070800,-10.205822
0.070900,-10.210053
0.071000,-10.214457
0.071100,-10.219022
0.071200,-10.223749
0.071300,-10.228627
0.071400,-10.233643
0.071500,-10.238780
0.071600,-10.244043
0.071700,-10.249410
0.071800,-10.254874
0.071900,-10.260424
0.072000,-10.266045
0.072100,-10.271738
0.072200,-10.277489
0.072300,-10.283283
0.072400,-10.289116
0.072500,-10.294972
0.072600,-10.300852
0.072700,-10.306740
0.072800,-10.312617
0.072900,-10.318485
0.073000,-10.324324
0.073100,-10.330141
0.073200,-10.335910
0.073300,-10.341634
0.073400,-10.347304
0.073500,-10.352905
0.073600,-10.358437
0.073700,-10.363888
0.073800,-10.369253
0.073900,-10.374529
0.074000,-10.379705
0.074100,-10.384774
0.074200,-10.389732
0.074300,-10.394568
0.074400,-10.399281
0.074500,-10.403860
0.074600,-10.408302
0.074700,-10.412600
0.074800,-10.416750
0.074900,-10.420748
0.075000,-10.424594
0.075100,-10.428271
0.075200,-10.431782
0.075300,-10.435136
0.075400,-10.438307
0.075500,-10.441311
0.075600,-10.444148
0.075700,-10.446796
0.075800,-10.449270
0.075900,-10.451564
0.076000,-10.453666
0.076100,-10.455585
0.076200,-10.457319
0.076300,-10.458855
0.076400,-10.460215
0.076500,-10.461371
0.076600,-10.462337
0.076700,-10.463112
0.076800,-10.463693
0.076900,-10.464092
0.077000,-10.464293
0.077100,-10.464311
0.077200,-10.464135
0.077300,-10.463784
0.077400,-10.463250
0.077500,-10.462524
0.077600,-10.461625
0.077700,-10.460553
0.077800,-10.459302
0.077900,-10.457885
0.078000,-10.456288
0.078100,-10.454543
0.078200,-10.452624
0.078300,-10.450541
0.078400,-10.448307
0.078500,-10.445923
0.078600,-10.443386
0.078700,-10.440701
0.078800,-10.437868
0.078900,-10.434893
0.079000,-10.431783
0.079100,-10.428530
0.079200,-10.425150
0.079300,-10.421653
0.079400,-10.418028
0.079500,-10.414275
0.079600,-10.410414
0.079700,-10.406443
0.079800,-10.402363
0.079900,-10.398177
0.080000,-10.393890
0.080100,-10.389527
0.080200,-10.385063
0.080300,-10.380514
0.080400,-10.375894
0.080500,-10.371197
0.080600,-10.366427
0.080700,-10.361596
0.080800,-10.356714
0.080900,-10.351769
0.081000,-10.346768
0.081100,-10.341731
0.081200,-10.336639
0.081300,-10.331513
0.081400,-10.326345
0.081500,-10.321135
0.081600,-10.315910
0.081700,-10.310650
0.081800,-10.305373
0.081900,-10.300061
0.082000,-10.294729
0.082100,-10.289381
0.082200,-10.284013
0.082300,-10.278630
0.082400,-10.273238
0.082500,-10.267840
0.082600,-10.262435
0.082700,-10.257029
0.082800,-10.251625
0.082900,-10.246224
0.083000,-10.240837
0.083100,-10.235470
0.083200,-10.230117
0.083300,-10.224782
0.083400,-10.219467
0.083500,-10.214187
0.083600,-10.208939
0.083700,-10.203728
0.083800,-10.198545
0.083900,-10.193417
0.084000,-10.188332
0.084100,-10.183281
0.084200,-10.178281
0.084300,-10.173340
0.084400,-10.168453
0.084500,-10.163629
0.084600,-10.158871
0.084700,-10.154168
0.084800,-10.149546
0.084900,-10.144979
0.085000,-10.140481
0.085100,-10.136053
0.085200,-10.131695
0.085300,-10.127429
0.085400,-10.123223
0.085500,-10.119100
0.085600,-10.115044
0.085700,-10.111082
0.085800,-10.107197
0.085900,-10.103387
0.086000,-10.099665
0.086100,-10.096012
0.086200,-10.092444
0.086300,-10.088959
0.086400,-10.085547
0.086500,-10.082229
0.086600,-10.078984
0.086700,-10.075829
0.086800,-10.072759
0.086900,-10.069773
0.087000,-10.066866
0.087100,-10.064053
0.087200,-10.061319
0.087300,-10.058675
0.087400,-10.056123
0.087500,-10.053660
0.087600,-10.051277
0.087700,-10.048980
0.087800,-10.046761
0.087900,-10.044626
0.088000,-10.042578
0.088100,-10.040610
0.088200,-10.038719
0.088300,-10.036913
0.088400,-10.035183
0.088500,-10.033530
0.088600,-10.031945
0.088700,-10.030444
0.088800,-10.029008
0.088900,-10.027639
0.089000,-10.026345
0.089100,-10.025114
0.089200,-10.023939
0.089300,-10.022817
0.089400,-10.021744
0.089500,-10.020737
0.089600,-10.019774
0.089700,-10.018859
0.089800,-10.017993
0.089900,-10.017181
0.090000,-10.016410
0.090100,-10.015671
0.090200,-10.014974
0.090300,-10.014316
0.090400,-10.013679
0.090500,-10.013087
0.090600,-10.012523
0.090700,-10.011992
0.090800,-10.011489
0.090900,-10.011011
0.091000,-10.010556
0.091100,-10.010127
0.091200,-10.009718
0.091300,-10.009331
0.091400,-10.008967
0.091500,-10.008620
0.091600,-10.008294
0.091700,-10.007967
0.091800,-10.007657
0.091900,-10.007357
0.092000,-10.007064
0.092100,-10.006754
0.092200,-10.006461
0.092300,-10.006172
0.092400,-10.005882
0.092500,-10.005575
0.092600,-10.005272
0.092700,-10.004969
0.092800,-10.004653
0.092900,-10.004332
0.093000,-10.004000
0.093100,-10.003653
0.093200,-10.003290
0.093300,-10.002932
0.093400,-10.002540
0.093500,-10.002122
0.093600,-10.001687
0.093700,-10.001229
0.093800,-10.000730
0.093900,-10.000208
0.094000,-9.999662
0.094100,-9.999080
0.094200,-9.998473
0.094300,-9.997833
0.094400,-9.997151
0.094500,-9.996439
0.094600,-9.995691
0.094700,-9.994891
0.094800,-9.994053
0.094900,-9.993167
0.095000,-9.992239
0.095100,-9.991262
0.095200,-9.990248
0.095300,-9.989178
0.095400,-9.988043
0.095500,-9.986859
0.095600,-9.985617
0.095700,-9.984321
0.095800,-9.982967
0.095900,-9.981549
0.096000,-9.980083
0.096100,-9.978549
0.096200,-9.976950
0.096300,-9.975289
0.096400,-9.973551
0.096500,-9.971757
0.096600,-9.969878
0.096700,-9.967935
0.096800,-9.965919
0.096900,-9.963827
0.097000,-9.961665
0.097100,-9.959433
0.097200,-9.957135
0.097300,-9.954758
0.097400,-9.952300
0.097500,-9.949757
0.097600,-9.947147
0.097700,-9.944462
0.097800,-9.941690
0.097900,-9.938849
0.098000,-9.935929
0.098100,-9.932931
0.098200,-9.929865
0.098300,-9.926704
0.098400,-9.923479
0.098500,-9.920171
0.098600,-9.916794
0.098700,-9.913334
0.098800,-9.909798
0.098900,-9.906185
0.099000,-9.902511
0.099100,-9.898765
0.099200,-9.894935
0.099300,-9.891046
0.099400,-9.887078
0.099500,-9.883064
0.099600,-9.878980
0.099700,-9.874833
0.099800,-9.870625
0.099900,-9.866359
0.100000,-9.862027
0.100100,-9.857650
0.100200,-9.853218
0.100300,-9.848749
0.100400,-9.844227
0.100500,-9.839667
0.100600,-9.835050
0.100700,-9.830401
0.100800,-9.825718
0.100900,-9.820995
